"Time","Am1:Measured current"
0,0
1.1288293536296352e-05,2.8476518502300912
2.2576587072592703e-05,4.9935116200793157
3.7673245507128919e-05,6.5727308843476839
5.4009723013145506e-05,7.09463275455765
7.1720413026646112e-05,7.0317360487552625
9.2144115408062207e-05,6.8100351412136968
0.00011829951769696593,6.6651864802380034
0.00014812425315941931,6.64893867104976
0.00018099220018195369,6.6634936775549303
0.00022431860986898085,6.6679760374424122
0.00027900401099486562,6.6675901330097824
0.00034087894407492731,6.6660528772842316
0.00039993039833262719,6.6648487584661611
0.00045898185259032708,6.6663163665321212
0.00052658757193224334,6.6710070305608786
0.00057585745802991818,6.6679351904045578
0.00062512734412759302,6.6660011481377577
0.00069044722632787632,6.6650205552315027
0.00075773947380095681,6.6674145710473036
0.00080764648343313779,6.6687280645982261
0.00085755349306531877,6.6667817715830946
0.00092519280875185067,6.6645395399223704
0.00098079263797128786,6.6655289558078783
0.001036392467190725,6.6675061264080453
0.0011034470184174685,6.6697748694420138
0.0011652307096676837,6.6665035030445816
0.0012163168869302097,6.6643400354847886
0.0012674030641927356,6.6663241829081086
0.001330359161123756,6.668220907426897
0.0014000729254630391,6.6712583262688145
0.0014580414291152845,6.6646024327576727
0.0015131323557146471,6.6626584059583296
0.0015617589648937499,6.666714058172893
0.0016242031040437945,6.669108514989202
0.0016873225211242507,6.6689136994309051
0.0017448166047660347,6.6641167140788129
0.001800832202952885,6.6639923622138051
0.0018528700709992559,6.6671746143633079
0.0019180648443988288,6.669964107025935
0.0019788866711250084,6.6678972811466544
0.0020368125844989981,6.6631767922883904
0.0020914048529961306,6.6646630995121665
0.0021435894837498288,6.6675681697670459
0.0022059373344105572,6.668928566511525
0.0022668917533547679,6.6666142876961958
0.0023221494755308412,6.6644197341185762
0.0023774071977069144,6.6659327752234692
0.0024384299282788585,6.6683275767612109
0.0025040356056108856,6.6707037612686575
0.0025603951925122002,6.6656384820983856
0.0026196813083266962,6.6624233426763313
0.0026719489468993384,6.6662178114048292
0.0027293070506466915,6.668610077963141
0.0027906675104888176,6.6686543829416456
0.0028492192390333878,6.6650660928664243
0.0029101878629589051,6.6628455032949159
0.0029639594421902262,6.6668126851205551
0.0030280250053459092,6.6710505080676956
0.0030856479924494884,6.6687463762971246
0.0031380971564082868,6.6648308734745942
0.003194107172867308,6.6651174020781676
0.0032514132952541673,6.667297132538855
0.0033203162456521191,6.6715795930184898
0.0033797990906038605,6.6679522646187861
0.0034343009649733104,6.6632353308416405
0.0034864685014267616,6.6654109479567776
0.0035404230957384645,6.6675748244818429
0.0036053152099585033,6.6691079938158309
0.003667487945195916,6.6662428211588791
0.0037195185316845282,6.6645281174897786
0.0037715491181731405,6.666372275960728
0.0038362163705788011,6.6685321458262292
0.0039056224711595945,6.6717796497640576
0.0039618950132570612,6.6644187231152703
0.0040153201398870769,6.6634228852270443
0.0040643927781097763,6.6668055189557949
0.0041315982678520533,6.6700036624535315
0.0041956130765405178,6.6697508339674787
0.0042499627503969324,6.6636611883957855
0.0043019487567896213,6.66487273166066
0.0043539628301603401,6.6672050151052256
0.0044210920096930915,6.6695563921695342
0.0044848603160353682,6.6675291930297398
0.004545749188383387,6.6607899425776012
0.0045979612639885006,6.6644735829516399
0.0046463232511581585,6.6677280066300808
0.004705233814811415,6.668017012389007
0.0047677352711654134,6.6661179898554783
0.0048237982141161612,6.6647482755927729
0.0048798611570669091,6.6662821109085133
0.0049457401717041315,6.6694181381699131
0.0050112536779331517,6.6718621796231155
0.0050639119165307627,6.6648329958173971
0.0051173015583392345,6.6643703075167817
0.0051695817399374433,6.6668054892489756
0.005242122741121155,6.6718012305829415
0.0052919251336687977,6.6675265861977975
0.0053417275262164403,6.6657327528274894
0.0054045429280271465,6.6654367254648568
0.0054711882285487243,6.6682946275074579
0.0055217641796841089,6.6684517431654875
0.0055723401308194935,6.6665573766986883
0.0056492026014050532,6.6616670618214595
0.0056985691041582937,6.6659109327908981
0.0057479356069115341,6.6675268132736285
0.0058115940387258669,6.6678456550396294
0.005879560615783889,6.6647609014475675
0.0059290079457005682,6.6648745389131001
0.0059784552756172475,6.6668192424088017
0.0060539796518819505,6.6708557756207405
0.0061056328904670045,6.6673760159241073
0.0061572861290520586,6.6656312057526952
0.0062204781910385103,6.6652798869512804
0.0062858650905269313,6.6683740609323499
0.006336490290383529,6.6684705750589872
0.0063871154902401268,6.6665411596870729
0.0064634132341863312,6.6617904203000258
0.0065132404637524132,6.6659209219766309
0.0065630676933184952,6.6675661746453398
0.0066265278641485376,6.6678750216938267
0.006693929812254449,6.6648048079709472
0.0067436822904467205,6.6648794444589727
0.006793434768638992,6.666815520475347
0.0068690961059426027,6.6709873340312145
0.0069203907269765556,6.6673810159399451
0.0069716853480105085,6.6656604766687177
0.0070349329083055434,6.6653195454999148
0.0071007340202499814,6.6684069357010181
0.0071511757154886883,6.6684662086303064
0.0072016174107273952,6.666535568885819
0.0072777687066320259,6.6619200258144708
0.007327919557043254,6.6659289067751608
0.0073780704074544821,6.6675867669571831
0.007441499495953686,6.6679037062847124
0.0075085702517434585,6.6648298937120067
0.0075584565256382749,6.664876618828071
0.0076083427995330914,6.6668119647547188
0.0076841046225413464,6.6710687252790697
0.0077351668940953393,6.667385307860151
0.0077862291656493323,6.66568005966427
0.0078495258906070842,6.6653426827107216
0.0079155983366923262,6.6684271373354358
0.0079659149566564669,6.66846450474881
0.0080162315766206076,6.6665325846942514
0.0080923031890103407,6.6619969205113705
0.0081426469267232553,6.6659333039791617
0.00819299066443617,6.6675994349295626
0.008256401161557932,6.6679216532284906
0.0083232708022103353,6.6648454152502028
0.0083732388777487902,6.6648747333499525
0.0084232069532872451,6.6668096656902662
0.0084990329297327093,6.6711205555876827
0.0085499497286616599,6.6673881178480725
0.0086008665275906105,6.665691860036226
0.008664192069438725,6.6653568832648178
0.0087304317981244037,6.66843969177767
0.0087806723401793133,6.668463452246491
0.008830912882234223,6.6665307554233397
0.0089069348322348765,6.6620433581808092
0.008957397539386373,6.6659359053770748
0.0090078602465378695,6.6676075882651071
0.0090712570132980355,6.6679328745202175
0.0091379999406399331,6.6648552003936974
0.0091880208196103482,6.664873621162605
0.0092380416985807633,6.6668082169651308
0.0093139080108032273,6.6711538614824804
0.0093647329306999951,6.6673899323400994
0.0094155578505967629,6.6656990791018158
0.0094789001851069161,6.6653657888205764
0.0095452441384898737,6.6684475764358009
0.0095954379735968195,6.6684627570304009
0.0096456318087037654,6.6665296049738458
0.0097216222702806148,6.6620720035380545
0.0097721594875402676,6.6659374967883087
0.0098226967047999204,6.6676128436243651
0.0098860838340167068,6.6679399468698017
0.009952746294901579,6.6648614006648952
0.010002801258150572,6.6648729528925799
0.010052856221399566,6.6668073018378777
0.010128747966956847,6.6711752332184853
0.010179514617178488,6.6673910997400707
0.010230281267400129,6.6657035610077093
0.010293633636737277,6.665371414027546
0.010360043074950614,6.6684525542920934
0.01041020786883964,6.6684623008320409
0.010460372662728666,6.6665288771871882
0.010536343119333777,6.6620898880973636
0.010586927310765078,6.6659384860667359
0.010637511502196379,6.6676162173449001
0.010700892137184594,6.6679444219059718
0.010767503432955622,6.6648653351644223
0.010817580287564235,6.6648725430672693
0.010867657142172847,6.6668067223506347
0.010943564968103007,6.6711889063640317
0.010994294618385459,6.6673918480862016
0.011045024268667911,6.6657063681995981
0.011108382757912564,6.6653749767245181
0.011174833524407762,6.6684557046843338
0.011224980116126085,6.668462004695102
0.011275126707844408,6.6665284159363161
0.011351084455620648,6.6621011285497902
0.011401698351856816,6.6659391062711482
0.011452312248092985,6.6676183751262128
0.011515688609884337,6.6679472581402424
0.01158226737861905,6.6648678327022184
0.011632358236340276,6.6648722884262384
0.011682449094061503,6.6668063549794105
0.011758367102466751,6.6711976315120989
0.011809073255135824,6.6673923262959862
0.011859779407804897,6.6657081354385612
0.011923141681535646,6.6653772355310839
0.01198961859129481,6.6684577008536019
0.012039753720196333,6.6684618139775811
0.012089888849097856,6.6665281234093907
0.012165838525684976,6.6621082198046722
0.012216471234423838,6.6659394969516974
0.012267103943162699,6.6676197514821247
0.01233047753223228,6.6679490569013202
0.01239703563273842,6.6648694180564121
0.012447135422477652,6.6648721289443857
0.012497235212216884,6.6668061219693451
0.012573159673752792,6.6712031885922443
0.012623850906224726,6.6673926311621781
0.012674542138696661,6.6657092513385621
0.012737906774191616,6.6653786682638856
0.01280440024219336,6.6684589664279983
0.012854528131817569,6.6684616918005624
0.012904656021441779,6.6665279378383921
0.012980600573620825,6.6621127033362502
0.01303124520594,6.6659397437376784
0.013081889838259175,6.6676206277769614
0.013145261643341037,6.6679501979868494
0.013211806616784418,6.6648704242821486
0.013261912093185993,6.6648720285736989
0.013312017569587567,6.6668059741505603
0.013387946122680449,6.6712067232444197
0.013438627883318052,6.6673928251994941
0.013489309643955656,6.6657099572407592
0.013552675762123633,6.6653795771875837
0.013619179724909128,6.6684597690572636
0.013669303034654979,6.6684616138016803
0.013719426344400831,6.6665278201049469
0.013795367643799312,6.6621155418679052
0.013846019836668664,6.665939899889687
0.013896672029538017,6.6676211850095122
0.013960042692745762,6.6679509219351543
0.014026579331593,6.6648710628687526
0.014076688424018059,6.664871965214374
0.014126797516443117,6.6668058803685062
0.014202728664451134,6.6712089695232217
0.014253404413111787,6.6673929485616235
0.014304080161772439,6.6657104042830637
0.014367447214308732,6.6653801538491315
0.014433957831518018,6.6684602781754361
0.014484078240715889,6.6684615641174396
0.01453419864991376,6.6665277454072669
0.01461013788488757,6.6621173404089733
0.014660794872956334,6.6659399987951851
0.014711451861025097,6.6676215390677838
0.014774821795721715,6.667951381253939
0.014841353144049699,6.6648714681058756
0.014891464533996448,6.6648719251432524
0.014941575923943197,6.6668058208674497
0.015017508717941453,6.6712103962140805
0.015068180651161825,6.6673930269341444
0.015118852584382196,6.6657106875879029
0.015182220227198989,6.6653805197198404
0.015248735064811114,6.6684606011486194
0.015298853635785956,6.668461532514506
0.015348972206760798,6.6665276980135264
0.01542491013165255,6.6621184805697053
0.015475570161467268,6.665940061481062
0.015526230191281985,6.6676217639155224
0.01558959966213623,6.6679516726794716
0.015656127652757409,6.6648717252484584
0.015706240501741294,6.6648718997705876
0.015756353350725179,6.6668057831157919
0.015832287188899709,6.67121130201763
0.015882956700903124,6.6673930767012193
0.015933626212906539,6.6657108672051582
0.015996994229215137,6.6653807518544816
0.016063511743914283,6.6684608060479835
0.016113629149422569,6.6684615124310209
0.016163746554930854,6.666527667943269
0.016239683648502253,6.6621192035871148
0.016290345607960839,6.6659401012268829
0.016341007567419425,6.6676219066596181
0.016404376743324504,6.6679518575821994
0.016470902603151441,6.6648718884114322
0.016521016378391429,6.6648718836928751
0.016571130153631417,6.6668057591633509
0.016647064654245036,6.671211876972353
0.016697732629874933,6.6673931082940889
0.01674840060550483,6.6657109811147821
0.016811768858371847,6.6653808991380306
0.016878288071357304,6.6684609360441245
0.016928404737742455,6.6684614996755318
0.016978521404127606,6.6665276488643528
0.017054457970203368,6.6621196621693359
0.017105121153867937,6.665940126433914
0.017155784337532506,6.6676219972611594
0.017219153326036407,6.6679519748988394
0.017285677833758031,6.6648719919395489
0.017335792196900665,6.6648718735002364
0.0173859065600433,6.666805743966095
0.017461841480933372,6.6712122418664839
0.01751250848170071,6.6673931283458403
0.017563175482468048,6.6657110533664472
0.017626543885259676,6.6653809925860212
0.017693064175664519,6.6684610185206861
0.017743180373228581,6.6684614915772178
0.017793296570792642,6.6665276367591835
0.017869232802166939,6.6621199530671102
0.017919896762519646,6.665940142422877
0.017970560722872352,6.6676220547594056
0.018033929592368676,6.6679520493337359
0.018100453242142565,6.6648720576278535
0.018150567978382784,6.6648718670365579
0.018200682714623002,6.6668057343237797
0.018276617902158725,6.6712124734234761
0.018327284284369333,6.6673931410709839
0.018377950666579941,6.6657110991999584
0.018441319164428611,6.6653810518766949
0.018507840138390488,6.668461070849081
0.018557956038552308,6.6684614864369065
0.018608071938714128,6.6665276290787032
0.018684007957720631,6.6621201376103869
0.018734672410848002,6.6659401525657982
0.018785336863975374,6.6676220912462947
0.018848705657921381,6.6679520965611117
0.018915228763318886,6.664872099306443
0.018965343736316247,6.6648718629368364
0.019015458709313607,6.6668057282059427
0.019091394066025807,6.671212620357295
0.019142060055764555,6.6673931491459211
0.019192726045503303,6.6657111282768495
0.019256094603636573,6.6653810894953169
0.019322616011283388,6.6684611040497854
0.019372731722772051,6.6684614831746378
0.019422847434260714,6.6665276242056031
0.019498783318521888,6.6621202546889
0.019549448084296872,6.6659401590005549
0.019600112850071856,6.6676221143986227
0.019663481596065683,6.6679521265258659
0.019730004356057436,6.6648721257509669
0.019780119479286096,6.6648718603361878
0.019830234602514756,6.6668057243243073
0.019906170066564088,6.671212713590096
0.019956835807283486,6.6673931542697202
0.020007501548002883,6.6657111467240986
0.020070870144374475,6.6653811133635399
0.020137391827178237,6.6684611251147636
0.020187507418966726,6.6684614811044485
0.020237623010755216,6.6665276211137163
0.020313558809521792,6.6621203289687836
0.020364223773662659,6.6659401630829969
0.020414888737803526,6.6676221290892146
0.020478257453365612,6.6679521455378934
0.020544779994199874,6.6648721425296111
0.020594895212753057,6.6648718586863591
0.020645010431306239,6.6668057218614898
0.020720945963458113,6.6712127727470563
0.020771611546177699,6.667393157520876
0.020822277128897285,6.6657111584279747
0.020885645749526036,6.665381128507418
0.0209521676069086,6.6684611384798913
0.021002283122753346,6.6684614797908308
0.021052398638598091,6.6665276191519949
0.021128334383120419,6.6621203760959604
0.021178999473118444,6.6659401656731045
0.021229664563116469,6.6676221384103753
0.021293033259367874,6.6679521576005669
0.021359555661150515,6.6648721531752075
0.021409670940186674,6.6648718576396648
0.021459786219222832,6.6668057202989095
0.021535721794583278,6.6712128102814265
0.021586387277056102,6.6673931595836899
0.021637052759528926,6.6657111658534918
0.021700421395546343,6.6653811381157784
0.021766943363692899,6.6684611469597188
0.02181705883135494,6.6684614789573109
0.021867174299016981,6.6665276179073274
0.021943110009122246,6.6621204059963004
0.021993775178972979,6.6659401673164025
0.022044440348823711,6.6676221443245529
0.022107809032821835,6.6679521652540457
0.022174331346378987,6.664872159929665
0.022224446663791097,6.664871856975588
0.022274561981203207,6.6668057193074732
0.02235049758397881,6.6712128340966883
0.022401163002846544,6.667393160892547
0.022451828421714278,6.6657111705647702
0.022515197067494875,6.6653811442120983
0.022581719105918767,6.6684611523399617
0.022631834543010331,6.6684614784284495
0.022681949980101895,6.6665276171176169
0.022757885668370365,6.6621204249671182
0.022808550888885656,6.6659401683590191
0.022859216109400948,6.6676221480770321
0.022922584785624093,6.6679521701099942
0.022989107043203862,6.6648721642152617
0.023039222384965152,6.6648718565542646
0.023089337726726441,6.6668057186784271
0.023165273346896446,6.6712128492072189
0.023215938725407836,6.667393161722992
0.023266604103919227,6.6657111735539374
0.023329972755893994,6.6653811480800949
0.023396494838907187,6.6684611557536231
0.023446610256602652,6.6684614780928841
0.023496725674298117,6.6665276166165555
0.02357266134871136,6.6621204370037157
0.0236233266013725,6.6659401690205451
0.023673991854033641,6.6676221504579471
0.023737360525323551,6.6679521731910238
0.023803882747386356,6.664872166934332
0.023853998104596826,6.6648718562869504
0.023904113461807295,6.6668057182793152
0.023980049093013624,6.6712128587945489
0.024030714445919848,6.6673931622499003
0.024081379798826071,6.6657111754504843
0.02414474845473083,6.6653811505342517
0.024211270566034931,6.6684611579195145
0.024261385971424118,6.6684614778799682
0.024311501376813306,6.6665276162986409
0.024387437042435681,6.662120444640613
0.024438102315492601,6.6659401694402591
0.02448876758854952,6.6676221519685956
0.024552136256709271,6.6679521751458664
0.024618658456237341,6.6648721686595742
0.024668773823250133,6.6648718561173474
0.024718889190262924,6.6668057180260867
0.024794824828471555,6.6712128648775684
0.024845490165131739,6.6673931625842142
0.024896155501791924,6.6657111766538009
0.024959524160190111,6.6653811520913724
0.025026046289444225,6.6684611592937122
0.025076161687025353,6.6684614777448772
0.02512627708460648,6.6665276160969418
0.025202212744651512,6.6621204494859816
0.025252878030648879,6.6659401697065563
0.025303543316646245,6.6676221529270476
0.02536691198282004,6.667952176386156
0.025433434168050564,6.6648721697542008
0.02548354954128261,6.6648718560097366
0.025533664914514656,6.6668057178654152
0.02560960055716623,6.6712128687371344
0.025660265883518538,6.6673931627963343
0.025710931209870846,6.6657111774172915
0.025774299869851192,6.665381153079327
0.025840822010494289,6.6684611601656565
0.02589093740312123,6.6684614776591626
0.025941052795748171,6.6665276159689517
0.026016988452254086,6.6621204525604547
0.026067653746462457,6.6659401698755278
0.026118319040670829,6.6676221535352171
0.026181687705584461,6.6679521771731354
0.02624820988174285,6.6648721704487004
0.026298325258921118,6.664871855941465
0.026348440636099386,6.6668057177634736
0.02642437628156984,6.6712128711860039
0.02647504160138197,6.6673931629309173
0.0265257069211941,6.665711177901704
0.026589075582178111,6.6653811537061891
0.026655597730047314,6.6684611607188842
0.02670571311953104,6.6684614776047733
0.026755828509014767,6.6665276158877509
0.026831764163275224,6.6621204545110917
0.026882429462693192,6.6659401699827345
0.02693309476211116,6.6676221539210792
0.026996463426225237,6.6679521776724489
0.027062985596627651,6.664872170889371
0.027113100976309711,6.6648718558981459
0.027163216355991771,6.6668057176987947
0.027239152003250579,6.6712128727397184
0.02728981731891322,6.6673931630163112
0.02734048263457586,6.6657111782090412
0.02740385129619664,6.6653811541038994
0.027470373448650481,6.6684611610698425
0.027520488836140018,6.6684614775702675
0.027570604223629554,6.6665276158362303
0.027646539876465481,6.6621204557485711
0.027697205179188521,6.6659401700507521
0.02774787048191156,6.6676221541658931
0.027811239145518214,6.6679521779892266
0.027877761312268729,6.6648721711689527
0.027927876693539366,6.664871855870663
0.027977992074810002,6.6668057176577573
0.028053927723203614,6.6712128737255094
0.028104593036233458,6.6673931630704892
0.028155258349263301,6.6657111784040532
0.028218627011288251,6.6653811543562336
0.028285149166651029,6.668461161292579
0.028335264552875113,6.6684614775483775
0.028385379939099196,6.6665276158035436
0.028461315591031277,6.6621204565338585
0.028511980895851524,6.6659401700939096
0.028562646200671771,6.6676221543212222
